v1	I(R1)
Step Information: Vg=-3  (Run: 1/8)
0.000000000000000e+000	3.563240e-012
1.000000000000000e-001	7.473479e-005
2.000000000000000e-001	1.287890e-004
3.000000000000000e-001	1.621245e-004
4.000000000000000e-001	1.747031e-004
5.000000000000000e-001	1.748494e-004
6.000000000000000e-001	1.748843e-004
7.000000000000000e-001	1.749192e-004
7.999999999999999e-001	1.749541e-004
8.999999999999999e-001	1.749890e-004
9.999999999999999e-001	1.750239e-004
1.100000000000000e+000	1.750588e-004
1.200000000000000e+000	1.750938e-004
1.300000000000000e+000	1.751287e-004
1.400000000000000e+000	1.751636e-004
1.500000000000000e+000	1.751985e-004
1.600000000000000e+000	1.752334e-004
1.700000000000000e+000	1.752683e-004
1.800000000000001e+000	1.753032e-004
1.900000000000001e+000	1.753381e-004
2.000000000000000e+000	1.753730e-004
2.100000000000001e+000	1.754079e-004
2.200000000000001e+000	1.754428e-004
2.300000000000001e+000	1.754777e-004
2.400000000000001e+000	1.755126e-004
2.500000000000001e+000	1.755475e-004
2.600000000000001e+000	1.755824e-004
2.700000000000001e+000	1.756173e-004
2.800000000000001e+000	1.756522e-004
2.900000000000001e+000	1.756871e-004
3.000000000000001e+000	1.757220e-004
3.100000000000001e+000	1.757570e-004
3.200000000000002e+000	1.757919e-004
3.300000000000002e+000	1.758268e-004
3.400000000000002e+000	1.758617e-004
3.500000000000002e+000	1.758966e-004
3.600000000000002e+000	1.759315e-004
3.700000000000002e+000	1.759664e-004
3.800000000000002e+000	1.760013e-004
3.900000000000002e+000	1.760362e-004
4.000000000000002e+000	1.760711e-004
4.100000000000001e+000	1.761060e-004
4.200000000000001e+000	1.761409e-004
4.300000000000001e+000	1.761758e-004
4.400000000000000e+000	1.762107e-004
4.500000000000000e+000	1.762456e-004
4.600000000000000e+000	1.762805e-004
4.699999999999999e+000	1.763154e-004
4.799999999999999e+000	1.763503e-004
4.899999999999999e+000	1.763852e-004
5.000000000000000e+000	1.764201e-004
Step Information: Vg=-2.5  (Run: 2/8)
0.000000000000000e+000	3.035408e-012
1.000000000000000e-001	1.779787e-004
2.000000000000000e-001	3.354673e-004
3.000000000000000e-001	4.724282e-004
4.000000000000000e-001	5.888238e-004
5.000000000000000e-001	6.846162e-004
6.000000000000000e-001	7.597675e-004
7.000000000000000e-001	8.142398e-004
7.999999999999999e-001	8.479949e-004
8.999999999999999e-001	8.609947e-004
9.999999999999999e-001	8.613092e-004
1.100000000000000e+000	8.614808e-004
1.200000000000000e+000	8.616524e-004
1.300000000000000e+000	8.618240e-004
1.400000000000000e+000	8.619956e-004
1.500000000000000e+000	8.621672e-004
1.600000000000000e+000	8.623388e-004
1.700000000000000e+000	8.625104e-004
1.800000000000001e+000	8.626819e-004
1.900000000000001e+000	8.628535e-004
2.000000000000000e+000	8.630251e-004
2.100000000000001e+000	8.631967e-004
2.200000000000001e+000	8.633683e-004
2.300000000000001e+000	8.635399e-004
2.400000000000001e+000	8.637115e-004
2.500000000000001e+000	8.638831e-004
2.600000000000001e+000	8.640547e-004
2.700000000000001e+000	8.642263e-004
2.800000000000001e+000	8.643979e-004
2.900000000000001e+000	8.645695e-004
3.000000000000001e+000	8.647410e-004
3.100000000000001e+000	8.649126e-004
3.200000000000002e+000	8.650842e-004
3.300000000000002e+000	8.652558e-004
3.400000000000002e+000	8.654274e-004
3.500000000000002e+000	8.655990e-004
3.600000000000002e+000	8.657706e-004
3.700000000000002e+000	8.659422e-004
3.800000000000002e+000	8.661138e-004
3.900000000000002e+000	8.662854e-004
4.000000000000002e+000	8.664569e-004
4.100000000000001e+000	8.666285e-004
4.200000000000001e+000	8.668001e-004
4.300000000000001e+000	8.669717e-004
4.400000000000000e+000	8.671433e-004
4.500000000000000e+000	8.673149e-004
4.600000000000000e+000	8.674865e-004
4.699999999999999e+000	8.676581e-004
4.799999999999999e+000	8.678297e-004
4.899999999999999e+000	8.680013e-004
5.000000000000000e+000	8.681729e-004
Step Information: Vg=-2  (Run: 3/8)
0.000000000000000e+000	2.506274e-012
1.000000000000000e-001	2.805834e-004
2.000000000000000e-001	5.408648e-004
3.000000000000000e-001	7.808072e-004
4.000000000000000e-001	1.000374e-003
5.000000000000000e-001	1.199526e-003
6.000000000000000e-001	1.378228e-003
7.000000000000000e-001	1.536442e-003
7.999999999999999e-001	1.674131e-003
8.999999999999999e-001	1.791256e-003
9.999999999999999e-001	1.887779e-003
1.100000000000000e+000	1.963664e-003
1.200000000000000e+000	2.018872e-003
1.300000000000000e+000	2.053365e-003
1.400000000000000e+000	2.067104e-003
1.500000000000000e+000	2.067723e-003
1.600000000000000e+000	2.068134e-003
1.700000000000000e+000	2.068545e-003
1.800000000000001e+000	2.068957e-003
1.900000000000001e+000	2.069368e-003
2.000000000000000e+000	2.069779e-003
2.100000000000001e+000	2.070190e-003
2.200000000000001e+000	2.070601e-003
2.300000000000001e+000	2.071012e-003
2.400000000000001e+000	2.071423e-003
2.500000000000001e+000	2.071834e-003
2.600000000000001e+000	2.072245e-003
2.700000000000001e+000	2.072657e-003
2.800000000000001e+000	2.073068e-003
2.900000000000001e+000	2.073479e-003
3.000000000000001e+000	2.073890e-003
3.100000000000001e+000	2.074301e-003
3.200000000000002e+000	2.074712e-003
3.300000000000002e+000	2.075123e-003
3.400000000000002e+000	2.075534e-003
3.500000000000002e+000	2.075945e-003
3.600000000000002e+000	2.076356e-003
3.700000000000002e+000	2.076767e-003
3.800000000000002e+000	2.077179e-003
3.900000000000002e+000	2.077590e-003
4.000000000000002e+000	2.078001e-003
4.100000000000001e+000	2.078412e-003
4.200000000000001e+000	2.078823e-003
4.300000000000001e+000	2.079234e-003
4.400000000000000e+000	2.079645e-003
4.500000000000000e+000	2.080056e-003
4.600000000000000e+000	2.080467e-003
4.699999999999999e+000	2.080878e-003
4.799999999999999e+000	2.081289e-003
4.899999999999999e+000	2.081700e-003
5.000000000000000e+000	2.082112e-003
Step Information: Vg=-1.5  (Run: 4/8)
0.000000000000000e+000	1.975142e-012
1.000000000000000e-001	3.825549e-004
2.000000000000000e-001	7.449935e-004
3.000000000000000e-001	1.087280e-003
4.000000000000000e-001	1.409376e-003
5.000000000000000e-001	1.711247e-003
6.000000000000000e-001	1.992855e-003
7.000000000000000e-001	2.254163e-003
7.999999999999999e-001	2.495135e-003
8.999999999999999e-001	2.715733e-003
9.999999999999999e-001	2.915920e-003
1.100000000000000e+000	3.095659e-003
1.200000000000000e+000	3.254912e-003
1.300000000000000e+000	3.393642e-003
1.400000000000000e+000	3.511811e-003
1.500000000000000e+000	3.609382e-003
1.600000000000000e+000	3.686316e-003
1.700000000000000e+000	3.742576e-003
1.800000000000001e+000	3.778124e-003
1.900000000000001e+000	3.792922e-003
2.000000000000000e+000	3.793996e-003
2.100000000000001e+000	3.794749e-003
2.200000000000001e+000	3.795502e-003
2.300000000000001e+000	3.796254e-003
2.400000000000001e+000	3.797007e-003
2.500000000000001e+000	3.797760e-003
2.600000000000001e+000	3.798513e-003
2.700000000000001e+000	3.799265e-003
2.800000000000001e+000	3.800018e-003
2.900000000000001e+000	3.800771e-003
3.000000000000001e+000	3.801524e-003
3.100000000000001e+000	3.802276e-003
3.200000000000002e+000	3.803029e-003
3.300000000000002e+000	3.803782e-003
3.400000000000002e+000	3.804535e-003
3.500000000000002e+000	3.805288e-003
3.600000000000002e+000	3.806040e-003
3.700000000000002e+000	3.806793e-003
3.800000000000002e+000	3.807546e-003
3.900000000000002e+000	3.808299e-003
4.000000000000002e+000	3.809051e-003
4.100000000000001e+000	3.809804e-003
4.200000000000001e+000	3.810557e-003
4.300000000000001e+000	3.811310e-003
4.400000000000000e+000	3.812062e-003
4.500000000000000e+000	3.812815e-003
4.600000000000000e+000	3.813568e-003
4.699999999999999e+000	3.814321e-003
4.799999999999999e+000	3.815073e-003
4.899999999999999e+000	3.815826e-003
5.000000000000000e+000	3.816579e-003
Step Information: Vg=-1  (Run: 5/8)
0.000000000000000e+000	1.440920e-012
1.000000000000000e-001	4.838989e-004
2.000000000000000e-001	9.478651e-004
3.000000000000000e-001	1.391863e-003
4.000000000000000e-001	1.815856e-003
5.000000000000000e-001	2.219808e-003
6.000000000000000e-001	2.603682e-003
7.000000000000000e-001	2.967444e-003
7.999999999999999e-001	3.311056e-003
8.999999999999999e-001	3.634481e-003
9.999999999999999e-001	3.937683e-003
1.100000000000000e+000	4.220625e-003
1.200000000000000e+000	4.483270e-003
1.300000000000000e+000	4.725582e-003
1.400000000000000e+000	4.947524e-003
1.500000000000000e+000	5.149057e-003
1.600000000000000e+000	5.330144e-003
1.700000000000000e+000	5.490750e-003
1.800000000000001e+000	5.630835e-003
1.900000000000001e+000	5.750363e-003
2.000000000000000e+000	5.849296e-003
2.100000000000001e+000	5.927595e-003
2.200000000000001e+000	5.985223e-003
2.300000000000001e+000	6.022143e-003
2.400000000000001e+000	6.038315e-003
2.500000000000001e+000	6.040018e-003
2.600000000000001e+000	6.041214e-003
2.700000000000001e+000	6.042410e-003
2.800000000000001e+000	6.043606e-003
2.900000000000001e+000	6.044802e-003
3.000000000000001e+000	6.045998e-003
3.100000000000001e+000	6.047193e-003
3.200000000000002e+000	6.048390e-003
3.300000000000002e+000	6.049586e-003
3.400000000000002e+000	6.050781e-003
3.500000000000002e+000	6.051977e-003
3.600000000000002e+000	6.053173e-003
3.700000000000002e+000	6.054369e-003
3.800000000000002e+000	6.055565e-003
3.900000000000002e+000	6.056761e-003
4.000000000000002e+000	6.057957e-003
4.100000000000001e+000	6.059153e-003
4.200000000000001e+000	6.060349e-003
4.300000000000001e+000	6.061545e-003
4.400000000000000e+000	6.062741e-003
4.500000000000000e+000	6.063937e-003
4.600000000000000e+000	6.065133e-003
4.699999999999999e+000	6.066329e-003
4.799999999999999e+000	6.067525e-003
4.899999999999999e+000	6.068720e-003
5.000000000000000e+000	6.069916e-003
Step Information: Vg=-500m  (Run: 6/8)
0.000000000000000e+000	9.017047e-013
1.000000000000000e-001	5.846212e-004
2.000000000000000e-001	1.149491e-003
3.000000000000000e-001	1.694574e-003
4.000000000000000e-001	2.219835e-003
5.000000000000000e-001	2.725238e-003
6.000000000000000e-001	3.210746e-003
7.000000000000000e-001	3.676326e-003
7.999999999999999e-001	4.121940e-003
8.999999999999999e-001	4.547553e-003
9.999999999999999e-001	4.953127e-003
1.100000000000000e+000	5.338629e-003
1.200000000000000e+000	5.704020e-003
1.300000000000000e+000	6.049264e-003
1.400000000000000e+000	6.374326e-003
1.500000000000000e+000	6.679168e-003
1.600000000000000e+000	6.963753e-003
1.700000000000000e+000	7.228045e-003
1.800000000000001e+000	7.472007e-003
1.900000000000001e+000	7.695601e-003
2.000000000000000e+000	7.898792e-003
2.100000000000001e+000	8.081540e-003
2.200000000000001e+000	8.243810e-003
2.300000000000001e+000	8.385564e-003
2.400000000000001e+000	8.506764e-003
2.500000000000001e+000	8.607372e-003
2.600000000000001e+000	8.687351e-003
2.700000000000001e+000	8.746662e-003
2.800000000000001e+000	8.785269e-003
2.900000000000001e+000	8.803133e-003
3.000000000000001e+000	8.805665e-003
3.100000000000001e+000	8.807405e-003
3.200000000000002e+000	8.809145e-003
3.300000000000002e+000	8.810885e-003
3.400000000000002e+000	8.812625e-003
3.500000000000002e+000	8.814366e-003
3.600000000000002e+000	8.816105e-003
3.700000000000002e+000	8.817845e-003
3.800000000000002e+000	8.819586e-003
3.900000000000002e+000	8.821325e-003
4.000000000000002e+000	8.823065e-003
4.100000000000001e+000	8.824806e-003
4.200000000000001e+000	8.826545e-003
4.300000000000001e+000	8.828285e-003
4.400000000000000e+000	8.830026e-003
4.500000000000000e+000	8.831766e-003
4.600000000000000e+000	8.833505e-003
4.699999999999999e+000	8.835246e-003
4.799999999999999e+000	8.836986e-003
4.899999999999999e+000	8.838725e-003
5.000000000000000e+000	8.840465e-003
Step Information: Vg=0  (Run: 7/8)
0.000000000000000e+000	0.000000e+000
1.000000000000000e-001	6.847276e-004
2.000000000000000e-001	1.349883e-003
3.000000000000000e-001	1.995431e-003
4.000000000000000e-001	2.621337e-003
5.000000000000000e-001	3.227565e-003
6.000000000000000e-001	3.814081e-003
7.000000000000000e-001	4.380850e-003
7.999999999999999e-001	4.927834e-003
8.999999999999999e-001	5.455000e-003
9.999999999999999e-001	5.962312e-003
1.100000000000000e+000	6.449734e-003
1.200000000000000e+000	6.917230e-003
1.300000000000000e+000	7.364764e-003
1.400000000000000e+000	7.792301e-003
1.500000000000000e+000	8.199804e-003
1.600000000000000e+000	8.587236e-003
1.700000000000000e+000	8.954562e-003
1.800000000000001e+000	9.301746e-003
1.900000000000001e+000	9.628750e-003
2.000000000000000e+000	9.935539e-003
2.100000000000001e+000	1.022208e-002
2.200000000000001e+000	1.048832e-002
2.300000000000001e+000	1.073424e-002
2.400000000000001e+000	1.095980e-002
2.500000000000001e+000	1.116496e-002
2.600000000000001e+000	1.134968e-002
2.700000000000001e+000	1.151393e-002
2.800000000000001e+000	1.165766e-002
2.900000000000001e+000	1.178085e-002
3.000000000000001e+000	1.188344e-002
3.100000000000001e+000	1.196541e-002
3.200000000000002e+000	1.202672e-002
3.300000000000002e+000	1.206733e-002
3.400000000000002e+000	1.208720e-002
3.500000000000002e+000	1.209080e-002
3.600000000000002e+000	1.209319e-002
3.700000000000002e+000	1.209557e-002
3.800000000000002e+000	1.209795e-002
3.900000000000002e+000	1.210034e-002
4.000000000000002e+000	1.210272e-002
4.100000000000001e+000	1.210511e-002
4.200000000000001e+000	1.210749e-002
4.300000000000001e+000	1.210988e-002
4.400000000000000e+000	1.211226e-002
4.500000000000000e+000	1.211464e-002
4.600000000000000e+000	1.211703e-002
4.699999999999999e+000	1.211941e-002
4.799999999999999e+000	1.212180e-002
4.899999999999999e+000	1.212418e-002
5.000000000000000e+000	1.212657e-002
Step Information: Vg=500m  (Run: 8/8)
0.000000000000000e+000	-8.276434e-006
1.000000000000000e-001	7.839760e-004
2.000000000000000e-001	1.548985e-003
3.000000000000000e-001	2.294390e-003
4.000000000000000e-001	3.020325e-003
5.000000000000000e-001	3.726762e-003
6.000000000000000e-001	4.413666e-003
7.000000000000000e-001	5.081000e-003
7.999999999999999e-001	5.728731e-003
8.999999999999999e-001	6.356825e-003
9.999999999999999e-001	6.965244e-003
1.100000000000000e+000	7.553955e-003
1.200000000000000e+000	8.122922e-003
1.300000000000000e+000	8.672110e-003
1.400000000000000e+000	9.201483e-003
1.500000000000000e+000	9.711007e-003
1.600000000000000e+000	1.020064e-002
1.700000000000000e+000	1.067036e-002
1.800000000000001e+000	1.112012e-002
1.900000000000001e+000	1.154988e-002
2.000000000000000e+000	1.195962e-002
2.100000000000001e+000	1.234929e-002
2.200000000000001e+000	1.271885e-002
2.300000000000001e+000	1.306828e-002
2.400000000000001e+000	1.339754e-002
2.500000000000001e+000	1.370658e-002
2.600000000000001e+000	1.399537e-002
2.700000000000001e+000	1.426389e-002
2.800000000000001e+000	1.451208e-002
2.900000000000001e+000	1.473991e-002
3.000000000000001e+000	1.494734e-002
3.100000000000001e+000	1.513434e-002
3.200000000000002e+000	1.530088e-002
3.300000000000002e+000	1.544690e-002
3.400000000000002e+000	1.557238e-002
3.500000000000002e+000	1.567728e-002
3.600000000000002e+000	1.576156e-002
3.700000000000002e+000	1.582518e-002
3.800000000000002e+000	1.586810e-002
3.900000000000002e+000	1.589029e-002
4.000000000000002e+000	1.589524e-002
4.100000000000001e+000	1.589837e-002
4.200000000000001e+000	1.590149e-002
4.300000000000001e+000	1.590462e-002
4.400000000000000e+000	1.590775e-002
4.500000000000000e+000	1.591088e-002
4.600000000000000e+000	1.591401e-002
4.699999999999999e+000	1.591714e-002
4.799999999999999e+000	1.592026e-002
4.899999999999999e+000	1.592339e-002
5.000000000000000e+000	1.592652e-002
